# energy, eels_NLFC_w, eels_LFC_w
0.000000, -0.000000, 0.000000
0.010004, 0.000642, 0.000663
0.020017, 0.001286, 0.001328
0.030037, 0.001933, 0.001996
0.040066, 0.002585, 0.002669
0.050104, 0.003242, 0.003349
0.060149, 0.003906, 0.004036
0.070204, 0.004579, 0.004733
0.080266, 0.005261, 0.005440
0.090337, 0.005954, 0.006160
0.100416, 0.006658, 0.006892
0.110503, 0.007375, 0.007638
0.120599, 0.008105, 0.008399
0.130704, 0.008849, 0.009175
0.140817, 0.009607, 0.009967
0.150938, 0.010379, 0.010775
0.161067, 0.011166, 0.011599
0.171206, 0.011965, 0.012437
0.181352, 0.012775, 0.013288
0.191507, 0.013596, 0.014150
0.201671, 0.014424, 0.015022
0.211843, 0.015257, 0.015898
0.222023, 0.016090, 0.016776
0.232212, 0.016920, 0.017651
0.242410, 0.017742, 0.018519
0.252616, 0.018553, 0.019374
0.262831, 0.019346, 0.020212
0.273054, 0.020119, 0.021028
0.283286, 0.020868, 0.021818
0.293526, 0.021589, 0.022579
0.303775, 0.022283, 0.023310
0.314032, 0.022948, 0.024011
0.324299, 0.023587, 0.024682
0.334573, 0.024201, 0.025327
0.344857, 0.024796, 0.025951
0.355149, 0.025376, 0.026558
0.365449, 0.025948, 0.027156
0.375759, 0.026519, 0.027752
0.386077, 0.027094, 0.028352
0.396404, 0.027680, 0.028965
0.406739, 0.028284, 0.029595
0.417083, 0.028910, 0.030249
0.427436, 0.029563, 0.030931
0.437798, 0.030244, 0.031644
0.448168, 0.030957, 0.032391
0.458547, 0.031701, 0.033170
0.468935, 0.032474, 0.033982
0.479332, 0.033274, 0.034823
0.489737, 0.034098, 0.035689
0.500151, 0.034941, 0.036575
0.510574, 0.035795, 0.037475
0.521006, 0.036656, 0.038382
0.531447, 0.037514, 0.039287
0.541896, 0.038364, 0.040183
0.552355, 0.039199, 0.041063
0.562822, 0.040011, 0.041920
0.573298, 0.040796, 0.042748
0.583783, 0.041551, 0.043543
0.594277, 0.042271, 0.044300
0.604780, 0.042958, 0.045021
0.615292, 0.043611, 0.045704
0.625812, 0.044234, 0.046353
0.636342, 0.044831, 0.046971
0.646881, 0.045407, 0.047564
0.657428, 0.045968, 0.048138
0.667985, 0.046520, 0.048699
0.678550, 0.047070, 0.049255
0.689125, 0.047623, 0.049810
0.699708, 0.048184, 0.050372
0.710301, 0.048757, 0.050944
0.720903, 0.049344, 0.051531
0.731513, 0.049946, 0.052133
0.742133, 0.050564, 0.052752
0.752762, 0.051194, 0.053388
0.763400, 0.051836, 0.054041
0.774047, 0.052487, 0.054708
0.784703, 0.053142, 0.055388
0.795368, 0.053798, 0.056079
0.806042, 0.054452, 0.056778
0.816726, 0.055098, 0.057483
0.827418, 0.055734, 0.058193
0.838120, 0.056355, 0.058904
0.848831, 0.056958, 0.059617
0.859551, 0.057540, 0.060328
0.870280, 0.058097, 0.061036
0.881019, 0.058628, 0.061741
0.891767, 0.059129, 0.062442
0.902524, 0.059600, 0.063136
0.913290, 0.060040, 0.063825
0.924066, 0.060449, 0.064509
0.934850, 0.060830, 0.065188
0.945645, 0.061184, 0.065863
0.956448, 0.061517, 0.066536
0.967261, 0.061832, 0.067210
0.978083, 0.062137, 0.067888
0.988914, 0.062438, 0.068573
0.999755, 0.062745, 0.069271
1.010605, 0.063067, 0.069985
1.021464, 0.063411, 0.070722
1.032333, 0.063789, 0.071486
1.043211, 0.064208, 0.072283
1.054099, 0.064678, 0.073117
1.064996, 0.065204, 0.073992
1.075902, 0.065795, 0.074911
1.086818, 0.066453, 0.075876
1.097744, 0.067183, 0.076887
1.108678, 0.067985, 0.077944
1.119623, 0.068858, 0.079044
1.130576, 0.069801, 0.080184
1.141540, 0.070810, 0.081360
1.152512, 0.071878, 0.082567
1.163495, 0.073001, 0.083799
1.174487, 0.074170, 0.085050
1.185488, 0.075377, 0.086313
1.196499, 0.076613, 0.087583
1.207520, 0.077868, 0.088851
1.218550, 0.079134, 0.090114
1.229590, 0.080402, 0.091365
1.240639, 0.081664, 0.092599
1.251698, 0.082915, 0.093813
1.262767, 0.084147, 0.095005
1.273845, 0.085357, 0.096171
1.284933, 0.086543, 0.097311
1.296031, 0.087703, 0.098424
1.307138, 0.088836, 0.099512
1.318255, 0.089945, 0.100574
1.329382, 0.091031, 0.101614
1.340518, 0.092098, 0.102634
1.351664, 0.093150, 0.103639
1.362820, 0.094194, 0.104633
1.373986, 0.095235, 0.105622
1.385162, 0.096280, 0.106611
1.396347, 0.097335, 0.107608
1.407542, 0.098407, 0.108617
1.418747, 0.099500, 0.109645
1.429962, 0.100619, 0.110695
1.441186, 0.101765, 0.111770
1.452421, 0.102940, 0.112873
1.463665, 0.104143, 0.114003
1.474920, 0.105373, 0.115162
1.486184, 0.106627, 0.116347
1.497458, 0.107903, 0.117558
1.508742, 0.109196, 0.118794
1.520036, 0.110505, 0.120051
1.531339, 0.111824, 0.121330
1.542653, 0.113151, 0.122626
1.553977, 0.114480, 0.123938
1.565311, 0.115808, 0.125262
1.576655, 0.117129, 0.126594
1.588008, 0.118438, 0.127929
1.599372, 0.119728, 0.129260
1.610746, 0.120994, 0.130582
1.622130, 0.122227, 0.131887
1.633524, 0.123421, 0.133168
1.644928, 0.124571, 0.134417
1.656342, 0.125670, 0.135629
1.667767, 0.126714, 0.136797
1.679201, 0.127700, 0.137917
1.690646, 0.128626, 0.138987
1.702100, 0.129493, 0.140006
1.713565, 0.130302, 0.140974
1.725040, 0.131057, 0.141893
1.736525, 0.131761, 0.142768
1.748021, 0.132422, 0.143602
1.759526, 0.133046, 0.144402
1.771042, 0.133640, 0.145176
1.782568, 0.134213, 0.145929
1.794105, 0.134772, 0.146670
1.805651, 0.135325, 0.147406
1.817208, 0.135879, 0.148144
1.828776, 0.136439, 0.148889
1.840353, 0.137008, 0.149646
1.851941, 0.137589, 0.150417
1.863539, 0.138179, 0.151201
1.875148, 0.138777, 0.151998
1.886767, 0.139378, 0.152802
1.898396, 0.139975, 0.153611
1.910036, 0.140563, 0.154417
1.921686, 0.141136, 0.155215
1.933346, 0.141686, 0.155998
1.945017, 0.142210, 0.156761
1.956699, 0.142701, 0.157497
1.968391, 0.143158, 0.158204
1.980093, 0.143577, 0.158876
1.991806, 0.143957, 0.159510
2.003529, 0.144298, 0.160106
2.015263, 0.144602, 0.160663
2.027008, 0.144871, 0.161182
2.038763, 0.145108, 0.161665
2.050528, 0.145317, 0.162116
2.062305, 0.145502, 0.162539
2.074091, 0.145669, 0.162941
2.085889, 0.145822, 0.163324
2.097697, 0.145964, 0.163696
2.109515, 0.146098, 0.164059
2.121344, 0.146226, 0.164417
2.133184, 0.146351, 0.164774
2.145035, 0.146472, 0.165130
2.156896, 0.146590, 0.165489
2.168768, 0.146705, 0.165850
2.180651, 0.146819, 0.166216
2.192545, 0.146932, 0.166587
2.204449, 0.147044, 0.166965
2.216364, 0.147158, 0.167351
2.228289, 0.147274, 0.167747
2.240226, 0.147392, 0.168153
2.252173, 0.147514, 0.168569
2.264132, 0.147637, 0.168993
2.276101, 0.147762, 0.169425
2.288081, 0.147885, 0.169861
2.300071, 0.148003, 0.170297
2.312073, 0.148113, 0.170728
2.324086, 0.148211, 0.171150
2.336109, 0.148295, 0.171558
2.348143, 0.148362, 0.171949
2.360189, 0.148413, 0.172322
2.372245, 0.148447, 0.172676
2.384312, 0.148469, 0.173014
2.396391, 0.148483, 0.173340
2.408480, 0.148495, 0.173661
2.420580, 0.148513, 0.173984
2.432691, 0.148543, 0.174318
2.444814, 0.148593, 0.174671
2.456947, 0.148669, 0.175052
2.469092, 0.148773, 0.175467
2.481247, 0.148908, 0.175918
2.493414, 0.149071, 0.176406
2.505592, 0.149258, 0.176931
2.517781, 0.149464, 0.177486
2.529981, 0.149683, 0.178067
2.542192, 0.149908, 0.178668
2.554415, 0.150133, 0.179281
2.566649, 0.150354, 0.179903
2.578894, 0.150568, 0.180529
2.591150, 0.150775, 0.181158
2.603417, 0.150976, 0.181789
2.615696, 0.151173, 0.182425
2.627986, 0.151372, 0.183067
2.640287, 0.151574, 0.183718
2.652600, 0.151784, 0.184382
2.664923, 0.152003, 0.185058
2.677259, 0.152232, 0.185747
2.689605, 0.152472, 0.186448
2.701963, 0.152720, 0.187156
2.714332, 0.152975, 0.187867
2.726713, 0.153232, 0.188576
2.739105, 0.153489, 0.189277
2.751509, 0.153742, 0.189964
2.763924, 0.153989, 0.190633
2.776351, 0.154228, 0.191280
2.788789, 0.154457, 0.191903
2.801238, 0.154676, 0.192503
2.813699, 0.154886, 0.193080
2.826172, 0.155089, 0.193639
2.838656, 0.155288, 0.194183
2.851151, 0.155485, 0.194717
2.863659, 0.155683, 0.195246
2.876177, 0.155883, 0.195774
2.888708, 0.156088, 0.196304
2.901250, 0.156297, 0.196840
2.913804, 0.156511, 0.197381
2.926369, 0.156728, 0.197927
2.938946, 0.156947, 0.198479
2.951535, 0.157166, 0.199033
2.964135, 0.157383, 0.199589
2.976747, 0.157595, 0.200143
2.989371, 0.157800, 0.200692
3.002007, 0.157994, 0.201234
3.014654, 0.158174, 0.201763
3.027314, 0.158338, 0.202276
3.039985, 0.158483, 0.202768
3.052668, 0.158608, 0.203234
3.065362, 0.158711, 0.203670
3.078069, 0.158793, 0.204074
3.090787, 0.158858, 0.204445
3.103518, 0.158911, 0.204787
3.116260, 0.158959, 0.205104
3.129014, 0.159010, 0.205404
3.141780, 0.159074, 0.205700
3.154558, 0.159161, 0.206002
3.167348, 0.159279, 0.206325
3.180150, 0.159438, 0.206681
3.192965, 0.159645, 0.207085
3.205791, 0.159905, 0.207548
3.218629, 0.160222, 0.208081
3.231479, 0.160599, 0.208693
3.244341, 0.161034, 0.209390
3.257215, 0.161526, 0.210176
3.270102, 0.162070, 0.211052
3.283001, 0.162657, 0.212015
3.295911, 0.163279, 0.213060
3.308834, 0.163925, 0.214178
3.321769, 0.164581, 0.215360
3.334716, 0.165236, 0.216594
3.347676, 0.165876, 0.217868
3.360648, 0.166491, 0.219169
3.373632, 0.167072, 0.220489
3.386628, 0.167612, 0.221820
3.399636, 0.168108, 0.223157
3.412657, 0.168560, 0.224499
3.425690, 0.168971, 0.225848
3.438736, 0.169343, 0.227208
3.451793, 0.169681, 0.228584
3.464864, 0.169989, 0.229980
3.477946, 0.170270, 0.231400
3.491041, 0.170525, 0.232846
3.504149, 0.170753, 0.234319
3.517268, 0.170952, 0.235816
3.530401, 0.171120, 0.237333
3.543545, 0.171253, 0.238868
3.556703, 0.171349, 0.240415
3.569872, 0.171404, 0.241970
3.583055, 0.171416, 0.243529
3.596250, 0.171384, 0.245088
3.609457, 0.171304, 0.246644
3.622677, 0.171174, 0.248190
3.635910, 0.170992, 0.249722
3.649155, 0.170754, 0.251231
3.662413, 0.170459, 0.252711
3.675683, 0.170106, 0.254153
3.688966, 0.169695, 0.255552
3.702262, 0.169229, 0.256903
3.715571, 0.168713, 0.258205
3.728892, 0.168152, 0.259459
3.742226, 0.167553, 0.260669
3.755573, 0.166922, 0.261838
3.768933, 0.166263, 0.262969
3.782305, 0.165578, 0.264063
3.795690, 0.164868, 0.265116
3.809088, 0.164129, 0.266121
3.822499, 0.163358, 0.267064
3.835923, 0.162548, 0.267930
3.849360, 0.161695, 0.268703
3.862809, 0.160793, 0.269364
3.876272, 0.159841, 0.269896
3.889747, 0.158838, 0.270287
3.903236, 0.157787, 0.270527
3.916737, 0.156693, 0.270614
3.930252, 0.155567, 0.270549
3.943779, 0.154418, 0.270341
3.957320, 0.153256, 0.270001
3.970873, 0.152093, 0.269544
3.984440, 0.150935, 0.268984
3.998020, 0.149788, 0.268332
4.011613, 0.148654, 0.267596
4.025219, 0.147533, 0.266779
4.038838, 0.146423, 0.265878
4.052470, 0.145320, 0.264888
4.066116, 0.144223, 0.263802
4.079774, 0.143130, 0.262610
4.093446, 0.142039, 0.261304
4.107132, 0.140951, 0.259878
4.120830, 0.139868, 0.258328
4.134542, 0.138791, 0.256651
4.148267, 0.137723, 0.254849
4.162005, 0.136668, 0.252930
4.175757, 0.135629, 0.250902
4.189522, 0.134609, 0.248778
4.203301, 0.133608, 0.246570
4.217093, 0.132628, 0.244290
4.230898, 0.131666, 0.241949
4.244717, 0.130721, 0.239553
4.258550, 0.129787, 0.237107
4.272395, 0.128859, 0.234611
4.286255, 0.127933, 0.232064
4.300127, 0.127004, 0.229464
4.314014, 0.126070, 0.226809
4.327914, 0.125129, 0.224096
4.341827, 0.124183, 0.221325
4.355754, 0.123235, 0.218497
4.369695, 0.122292, 0.215616
4.383650, 0.121361, 0.212690
4.397618, 0.120452, 0.209729
4.411599, 0.119575, 0.206749
4.425595, 0.118738, 0.203768
4.439604, 0.117948, 0.200802
4.453627, 0.117212, 0.197872
4.467664, 0.116530, 0.194993
4.481714, 0.115902, 0.192180
4.495779, 0.115325, 0.189442
4.509857, 0.114794, 0.186786
4.523949, 0.114302, 0.184212
4.538054, 0.113841, 0.181719
4.552174, 0.113405, 0.179301
4.566308, 0.112985, 0.176952
4.580455, 0.112574, 0.174661
4.594617, 0.112164, 0.172421
4.608792, 0.111750, 0.170221
4.622982, 0.111324, 0.168053
4.637185, 0.110881, 0.165911
4.651403, 0.110416, 0.163789
4.665635, 0.109923, 0.161682
4.679880, 0.109398, 0.159585
4.694140, 0.108835, 0.157495
4.708414, 0.108229, 0.155408
4.722702, 0.107576, 0.153319
4.737004, 0.106870, 0.151225
4.751320, 0.106108, 0.149122
4.765651, 0.105285, 0.147007
4.779996, 0.104401, 0.144879
4.794355, 0.103456, 0.142736
4.808728, 0.102451, 0.140581
4.823116, 0.101390, 0.138416
4.837517, 0.100280, 0.136245
4.851934, 0.099127, 0.134074
4.866364, 0.097941, 0.131910
4.880809, 0.096731, 0.129762
4.895268, 0.095509, 0.127640
4.909742, 0.094286, 0.125555
4.924230, 0.093075, 0.123518
4.938733, 0.091889, 0.121544
4.953250, 0.090740, 0.119645
4.967782, 0.089639, 0.117833
4.982328, 0.088596, 0.116119
4.996889, 0.087621, 0.114515
5.011464, 0.086720, 0.113027
5.026054, 0.085899, 0.111661
5.040658, 0.085159, 0.110420
5.055277, 0.084503, 0.109302
5.069911, 0.083928, 0.108307
5.084559, 0.083434, 0.107430
5.099222, 0.083017, 0.106667
5.113900, 0.082675, 0.106010
5.128593, 0.082403, 0.105453
5.143300, 0.082198, 0.104990
5.158022, 0.082059, 0.104614
5.172759, 0.081982, 0.104318
5.187511, 0.081965, 0.104098
5.202277, 0.082009, 0.103948
5.217059, 0.082115, 0.103866
5.231855, 0.082282, 0.103852
5.246667, 0.082515, 0.103907
5.261493, 0.082817, 0.104034
5.276334, 0.083192, 0.104236
5.291190, 0.083641, 0.104518
5.306062, 0.084167, 0.104883
5.320948, 0.084770, 0.105332
5.335849, 0.085446, 0.105865
5.350766, 0.086190, 0.106478
5.365697, 0.086993, 0.107165
5.380644, 0.087844, 0.107915
5.395605, 0.088730, 0.108718
5.410582, 0.089637, 0.109561
5.425575, 0.090549, 0.110429
5.440582, 0.091452, 0.111308
5.455604, 0.092334, 0.112185
5.470642, 0.093184, 0.113049
5.485696, 0.093997, 0.113891
5.500764, 0.094769, 0.114708
5.515848, 0.095505, 0.115501
5.530947, 0.096212, 0.116275
5.546062, 0.096901, 0.117042
5.561191, 0.097587, 0.117817
5.576337, 0.098284, 0.118616
5.591498, 0.099005, 0.119455
5.606674, 0.099760, 0.120347
5.621866, 0.100554, 0.121299
5.637073, 0.101389, 0.122314
5.652296, 0.102260, 0.123390
5.667534, 0.103160, 0.124521
5.682789, 0.104082, 0.125694
5.698058, 0.105015, 0.126901
5.713343, 0.105953, 0.128130
5.728644, 0.106891, 0.129373
5.743961, 0.107826, 0.130625
5.759294, 0.108762, 0.131886
5.774642, 0.109699, 0.133156
5.790006, 0.110644, 0.134439
5.805385, 0.111598, 0.135740
5.820781, 0.112563, 0.137061
5.836192, 0.113540, 0.138405
5.851619, 0.114526, 0.139768
5.867062, 0.115514, 0.141149
5.882521, 0.116499, 0.142542
5.897996, 0.117475, 0.143943
5.913487, 0.118437, 0.145346
5.928994, 0.119381, 0.146748
5.944517, 0.120305, 0.148147
5.960056, 0.121207, 0.149543
5.975611, 0.122085, 0.150934
5.991182, 0.122938, 0.152317
6.006769, 0.123762, 0.153688
6.022372, 0.124552, 0.155039
6.037992, 0.125301, 0.156361
6.053627, 0.126001, 0.157642
6.069279, 0.126644, 0.158870
6.084947, 0.127222, 0.160034
6.100632, 0.127730, 0.161123
6.116332, 0.128162, 0.162131
6.132049, 0.128515, 0.163053
6.147782, 0.128790, 0.163889
6.163532, 0.128990, 0.164640
6.179298, 0.129121, 0.165315
6.195081, 0.129193, 0.165922
6.210879, 0.129216, 0.166475
6.226695, 0.129201, 0.166987
6.242527, 0.129160, 0.167470
6.258375, 0.129101, 0.167935
6.274240, 0.129033, 0.168392
6.290121, 0.128962, 0.168844
6.306019, 0.128893, 0.169298
6.321934, 0.128831, 0.169755
6.337865, 0.128782, 0.170218
6.353813, 0.128753, 0.170690
6.369778, 0.128749, 0.171172
6.385759, 0.128777, 0.171668
6.401758, 0.128842, 0.172177
6.417773, 0.128947, 0.172701
6.433804, 0.129096, 0.173239
6.449853, 0.129290, 0.173787
6.465918, 0.129531, 0.174346
6.482001, 0.129818, 0.174914
6.498100, 0.130155, 0.175490
6.514216, 0.130542, 0.176077
6.530349, 0.130981, 0.176676
6.546499, 0.131476, 0.177291
6.562666, 0.132028, 0.177923
6.578850, 0.132639, 0.178577
6.595052, 0.133311, 0.179255
6.611270, 0.134047, 0.179961
6.627505, 0.134849, 0.180699
6.643758, 0.135720, 0.181474
6.660028, 0.136664, 0.182294
6.676315, 0.137684, 0.183165
6.692619, 0.138785, 0.184097
6.708940, 0.139967, 0.185102
6.725279, 0.141233, 0.186190
6.741635, 0.142580, 0.187370
6.758009, 0.144004, 0.188651
6.774399, 0.145499, 0.190039
6.790808, 0.147057, 0.191535
6.807233, 0.148668, 0.193140
6.823676, 0.150324, 0.194852
6.840137, 0.152016, 0.196669
6.856615, 0.153734, 0.198585
6.873111, 0.155468, 0.200590
6.889624, 0.157206, 0.202672
6.906154, 0.158933, 0.204814
6.922703, 0.160631, 0.206995
6.939269, 0.162280, 0.209191
6.955853, 0.163857, 0.211374
6.972454, 0.165337, 0.213513
6.989073, 0.166692, 0.215574
7.005710, 0.167893, 0.217520
7.022365, 0.168907, 0.219309
7.039037, 0.169708, 0.220898
7.055728, 0.170272, 0.222246
7.072436, 0.170585, 0.223319
7.089162, 0.170640, 0.224092
7.105906, 0.170442, 0.224549
7.122668, 0.170002, 0.224686
7.139448, 0.169341, 0.224513
7.156246, 0.168481, 0.224046
7.173062, 0.167451, 0.223311
7.189897, 0.166277, 0.222339
7.206749, 0.164990, 0.221164
7.223619, 0.163615, 0.219824
7.240508, 0.162179, 0.218354
7.257415, 0.160705, 0.216790
7.274340, 0.159215, 0.215163
7.291283, 0.157729, 0.213506
7.308245, 0.156262, 0.211845
7.325225, 0.154830, 0.210204
7.342223, 0.153444, 0.208601
7.359239, 0.152114, 0.207052
7.376274, 0.150846, 0.205572
7.393328, 0.149647, 0.204171
7.410400, 0.148518, 0.202856
7.427490, 0.147460, 0.201629
7.444599, 0.146465, 0.200487
7.461727, 0.145526, 0.199423
7.478873, 0.144630, 0.198423
7.496037, 0.143766, 0.197474
7.513221, 0.142924, 0.196564
7.530423, 0.142097, 0.195682
7.547643, 0.141283, 0.194823
7.564883, 0.140482, 0.193986
7.582141, 0.139696, 0.193172
7.599418, 0.138932, 0.192387
7.616714, 0.138194, 0.191639
7.634029, 0.137489, 0.190939
7.651362, 0.136822, 0.190295
7.668715, 0.136196, 0.189714
7.686086, 0.135608, 0.189198
7.703477, 0.135053, 0.188744
7.720886, 0.134526, 0.188347
7.738314, 0.134020, 0.187998
7.755762, 0.133532, 0.187693
7.773229, 0.133061, 0.187429
7.790715, 0.132610, 0.187208
7.808220, 0.132185, 0.187037
7.825744, 0.131788, 0.186918
7.843287, 0.131422, 0.186851
7.860850, 0.131082, 0.186830
7.878432, 0.130761, 0.186843
7.896033, 0.130450, 0.186873
7.913654, 0.130137, 0.186897
7.931294, 0.129810, 0.186895
7.948953, 0.129459, 0.186845
7.966632, 0.129079, 0.186732
7.984331, 0.128668, 0.186550
8.002049, 0.128234, 0.186301
8.019786, 0.127787, 0.185999
8.037543, 0.127343, 0.185669
8.055320, 0.126920, 0.185339
8.073117, 0.126534, 0.185040
8.090933, 0.126196, 0.184799
8.108768, 0.125914, 0.184637
8.126624, 0.125685, 0.184562
8.144499, 0.125505, 0.184574
8.162394, 0.125363, 0.184664
8.180309, 0.125247, 0.184813
8.198244, 0.125145, 0.185000
8.216199, 0.125046, 0.185204
8.234174, 0.124942, 0.185402
8.252168, 0.124827, 0.185577
8.270183, 0.124699, 0.185714
8.288218, 0.124556, 0.185800
8.306273, 0.124397, 0.185823
8.324348, 0.124218, 0.185776
8.342443, 0.124018, 0.185649
8.360558, 0.123796, 0.185442
8.378694, 0.123554, 0.185155
8.396849, 0.123296, 0.184798
8.415025, 0.123029, 0.184387
8.433222, 0.122762, 0.183939
8.451438, 0.122507, 0.183476
8.469676, 0.122275, 0.183017
8.487933, 0.122075, 0.182582
8.506211, 0.121913, 0.182187
8.524509, 0.121794, 0.181841
8.542828, 0.121718, 0.181552
8.561168, 0.121681, 0.181323
8.579528, 0.121678, 0.181152
8.597909, 0.121702, 0.181035
8.616310, 0.121743, 0.180963
8.634732, 0.121794, 0.180927
8.653175, 0.121850, 0.180919
8.671639, 0.121904, 0.180926
8.690123, 0.121955, 0.180938
8.708629, 0.122000, 0.180946
8.727155, 0.122041, 0.180944
8.745702, 0.122082, 0.180929
8.764270, 0.122129, 0.180905
8.782859, 0.122190, 0.180879
8.801469, 0.122269, 0.180859
8.820100, 0.122371, 0.180856
8.838752, 0.122495, 0.180874
8.857425, 0.122639, 0.180918
8.876119, 0.122799, 0.180985
8.894835, 0.122972, 0.181072
8.913572, 0.123153, 0.181175
8.932330, 0.123341, 0.181289
8.951109, 0.123537, 0.181412
8.969910, 0.123739, 0.181542
8.988732, 0.123951, 0.181682
9.007575, 0.124173, 0.181834
9.026440, 0.124408, 0.182004
9.045327, 0.124658, 0.182198
9.064235, 0.124925, 0.182423
9.083164, 0.125207, 0.182681
9.102115, 0.125500, 0.182972
9.121088, 0.125793, 0.183288
9.140082, 0.126068, 0.183609
9.159098, 0.126301, 0.183908
9.178136, 0.126464, 0.184146
9.197196, 0.126527, 0.184282
9.216277, 0.126461, 0.184273
9.235380, 0.126246, 0.184080
9.254506, 0.125867, 0.183674
9.273653, 0.125318, 0.183036
9.292822, 0.124603, 0.182156
9.312013, 0.123734, 0.181039
9.331226, 0.122727, 0.179700
9.350461, 0.121606, 0.178162
9.369719, 0.120391, 0.176453
9.388998, 0.119102, 0.174603
9.408300, 0.117755, 0.172643
9.427624, 0.116364, 0.170598
9.446970, 0.114938, 0.168494
9.466338, 0.113488, 0.166353
9.485729, 0.112020, 0.164193
9.505142, 0.110540, 0.162026
9.524578, 0.109049, 0.159859
9.544036, 0.107545, 0.157688
9.563517, 0.106021, 0.155502
9.583020, 0.104465, 0.153279
9.602546, 0.102866, 0.150997
